Wavelength (microns)	Average Spectral Radiance (W/m^2/sr/m)	Black Body Radiance (W/m^2/sr/m)	Emissivity
0.2	6.861559760617434e-22	1.034302044108772e-21	0.6633999999999846
0.21633165829145728	4.1956776732701876e-19	6.201119824519556e-19	0.6766000000000413
0.2326633165829146	1.0372382624859413e-16	1.4750259705430688e-16	0.7032000000000375
0.2489949748743719	1.1952478889124823e-14	1.6726110955954795e-14	0.7145999999999717
0.26532663316582916	7.547765732754517e-13	1.0382071159222461e-12	0.7269999999999796
0.28165829145728644	2.906938296627202e-11	3.921935100684145e-11	0.741200000000029
0.2979899497487437	7.339118362369265e-10	9.79332581047482e-10	0.7493999999999422
0.31432160804020104	1.295285106056886e-08	1.725666275055734e-08	0.7506000000000302
0.3306532663316583	1.7347186260436585e-07	2.2611035271683973e-07	0.7672000000000283
0.3469849246231156	1.7680334996500986e-06	2.2985354909648865e-06	0.7691999999999599
0.3633165829145729	1.4515964374053896e-05	1.876902556769241e-05	0.7734000000000313
0.3796482412060302	9.953355080417005e-05	0.00012669749338615685	0.7856000000000413
0.39597989949748746	0.0005710686918588002	0.0007241550746370822	0.7885999999999961
0.41231155778894474	0.0028091413153466683	0.003575790880023534	0.7856000000000503
0.428643216080402	0.012347802333806576	0.015516213035695746	0.7957999999999936
0.44497487437185934	0.04779637580908426	0.060030615183472934	0.7962000000000518
0.4613065326633166	0.17012491144918912	0.20966836510870387	0.8113999999999371
0.4776381909547739	0.5333736417195953	0.668220548383372	0.7981999999999818
0.49396984924623116	1.5804935244970346	1.9613967789738014	0.8057999999999722
0.5103015075376884	4.334048192684585	5.345397376275887	0.8108000000000178
0.5266331658291458	11.044525754731183	13.621763387679826	0.8108000000000279
0.5429648241206031	26.559450342038996	32.66041606251961	0.8131999999999403
0.5592964824120603	60.244865637642235	74.08370098086174	0.8132000000000739
0.5756281407035176	130.86710644505698	159.74988579719036	0.8191999999999915
0.591959798994975	270.1464128589529	328.8853334050878	0.8214000000000419
0.6082914572864322	531.4766112771166	648.9335913029655	0.8189999999999813
0.6246231155778894	1013.6833172987742	1231.3937284969838	0.8232000000000465
0.6409547738693468	1859.1670786002949	2254.08229704225	0.8247999999999321
0.6572864321608041	3307.2289147623555	3991.3455403844646	0.8285999999999469
0.6736180904522613	5713.282850523091	6853.746221837062	0.8335999999999586
0.6899497487437187	9450.599861509101	11438.634545521547	0.82619999999993
0.706281407035176	15365.070208515646	18592.776147768902	0.8263999999999692
0.7226130653266332	24451.328396932022	29487.8538313232	0.8291999999999602
0.7389447236180906	37755.79611958542	45709.19627068683	0.8259999999999584
0.7552763819095478	57760.958303479754	69357.53878900004	0.8328000000000075
0.771608040201005	85831.63146183372	103163.0185839244	0.8320000000000836
0.7879396984924623	125608.72695204732	150609.98435497205	0.8340000000000042
0.8042713567839197	181628.94193383423	216070.5947345008	0.8406000000000595
0.8206030150753769	254140.85170328317	304944.62647381687	0.8334000000000138
0.8369346733668341	354044.5610569983	423802.44320926216	0.8353999999999545
0.8532663316582916	481257.47491216013	580527.7140074932	0.8289999999999108
0.8695979899497488	658472.564125812	784456.2355561339	0.8393999999999914
0.885929648241206	875926.4532649303	1046507.1126224973	0.8369999999999045
0.9022613065326635	1161372.7808756696	1379302.5901135537	0.8420000000000416
0.9185929648241207	1511147.1394851191	1797273.0012907307	0.8407999999999293
0.9349246231155779	1947454.6606733159	2316743.5887141353	0.8406000000000923
0.9512562814070353	2515556.298409113	2956000.3506570845	0.8509999999999778
0.9675879396984925	3148885.336183992	3735332.5458882567	0.8430000000000514
0.9839195979899498	3963332.1968316995	4677050.031663575	0.8473999999999969
1.0002512562814072	4830154.526592168	5805474.19061559	0.8319999999999995
1.0165829145728644	5961945.481222045	7146901.799594761	0.8342000000000133
1.0329145728643216	7352020.092604616	8729541.786516435	0.8422000000000542
1.0492462311557789	8898544.068969317	10583425.39125654	0.8408000000000774
1.0655778894472363	10780834.056122346	12740290.777737899	0.846200000000042
1.0819095477386935	12844839.66353983	15233443.623743135	0.843199999999975
1.0982412060301507	15325043.982057998	18097595.63303775	0.8468000000000901
1.1145728643216082	18163380.774873063	21368683.264555335	0.8500000000000482
1.1309045226130654	21225800.921127923	25083669.252099656	0.8462000000000476
1.1472361809045226	24747734.657617457	29280329.694296807	0.8451999999999247
1.16356783919598	28686693.60158922	33997029.62975493	0.8438000000000592
1.1798994974874373	33106709.137302715	39272490.07984157	0.842999999999905
1.1962311557788945	38608473.971739456	45145549.54600264	0.8551999999999557
1.2125628140703517	43731057.72382934	51654922.89609173	0.8465999999999628
1.2288944723618092	50436756.91621349	58838960.47154753	0.8572000000000501
1.2452261306532664	56778486.91451322	66735410.10168449	0.8508000000000009
1.2615577889447236	63757405.87571056	75381184.53028603	0.8457999999999288
1.277889447236181	72242977.9136956	84812136.55047776	0.8517999999999841
1.2942211055276382	80156989.98796298	95062843.91361383	0.8432000000000399
1.3105527638190955	90581177.45699844	106166405.83334363	0.8531999999999026
1.326884422110553	100643792.4100569	118154252.65327524	0.8517999999999751
1.3432160804020101	110820928.22461912	131055969.99127087	0.8456000000000036
1.3595477386934673	123627944.90019904	144899138.42030767	0.8531999999999486
1.3758793969849246	136263880.48067147	159709189.49914938	0.8531999999999825
1.392211055276382	149463701.76596928	175509278.72942513	0.8515999999999477
1.4085427135678392	162856724.86052933	192320175.79183704	0.846800000000009
1.4248743718592964	177921601.78915504	210160172.20548797	0.8465999999999473
1.4412060301507539	194275974.3964834	229045006.362264	0.8482000000000482
1.457537688442211	210643683.63406146	248987805.7140443	0.8459999999999196
1.4738693467336683	228959190.78316367	269999045.734857	0.8480000000000182
1.4902010050251258	245294263.8152604	292086525.1431917	0.8398000000000275
1.506532663316583	267588746.81057948	315255356.75140345	0.8487999999999627
1.5228643216080402	287834859.6867058	339507973.2091155	0.8478000000000522
1.5391959798994976	307928459.920315	364844146.8250244	0.8439999999999847
1.5555276381909549	335154191.946918	391261022.58572835	0.8565999999999568
1.571859296482412	359792718.0277555	418753163.4400982	0.8592000000000551
1.5881909547738695	380126253.32844865	447312606.88218194	0.8497999999999339
1.6045226130653267	403004947.40775186	476928931.8434715	0.8450000000000386
1.620854271356784	432567631.1977842	507589334.8953381	0.8521999999999548
1.6371859296482414	463995406.18239504	539278714.7633282	0.8604000000000509
1.6535175879396986	486754779.3048637	571979764.1655272	0.8510000000000001
1.6698492462311558	520152030.80370754	605673068.0061716	0.8588000000000122
1.686180904522613	543902423.6104518	640337206.9819096	0.8494000000000278
1.7025125628140705	577530710.8459353	675948865.6905187	0.8543999999999351
1.7188442211055277	606750475.4250258	712482944.3693978	0.8516000000000655
1.735175879396985	634576104.2587886	749912673.4327526	0.8461999999999911
1.7515075376884424	675968664.4662973	788209730.0212975	0.8576000000000413
1.7678391959798996	706055673.2615348	827344355.8255259	0.8534000000000375
1.7841708542713568	743437109.5922288	867285475.4925507	0.8572000000000165
1.8005025125628142	769258290.4480329	908000814.9763728	0.8472000000000548
1.8168341708542715	804949660.9131343	949457019.241774	0.8477999999999561
1.8331658291457287	842678479.5111141	991619768.7821379	0.8498000000000538
1.8494974874371861	882182281.1963658	1034453894.4610709	0.8527999999999658
1.8658291457286433	921193414.7559426	1077923490.2362356	0.8546000000000517
1.8821608040201006	957507992.744893	1121992023.3711193	0.853399999999982
1.8984924623115578	999095459.1456215	1166622441.7860224	0.8564000000000617
1.9148241206030152	1046248502.0354316	1211777278.243496	0.8633999999999977
1.9311557788944724	1083643479.7024357	1257418751.1052065	0.8617999999999751
1.9474874371859296	1122842533.241937	1303508861.437044	0.8614000000000517
1.963819095477387	1161278160.0951743	1350009486.2766628	0.8601999999999919
1.9801507537688443	1209420840.7191315	1396882467.9129848	0.8658000000000495
1.9964824120603015	1241050687.3720884	1444089699.060023	0.859399999999934
2.012814070351759	1291719714.523628	1491593203.8379803	0.8659999999999578
2.029145728643216	1323537613.4296048	1539355214.5028512	0.8598000000000346
2.0454773869346736	1363206083.8541617	1587338243.8917668	0.8587999999999448
2.061809045226131	1413076452.6889186	1635505153.575053	0.8640000000000445
2.078140703517588	1467280066.3277903	1683819217.7276168	0.8713999999999673
2.0944723618090455	1502895052.9555793	1732244182.75185	0.8676000000000429
2.110804020100503	1555658240.311982	1780744322.7016287	0.8735999999999097
2.12713567839196	1603184927.5381582	1829284490.5728045	0.8764000000000833
2.1434673366834174	1644603658.9791574	1877830165.53924	0.8757999999999421
2.159798994974875	1668987470.7298472	1926347496.2255707	0.8664000000000066
2.176130653266332	1707414967.8663285	1974803340.1184242	0.8645999999999691
2.1924623115577893	1772292802.1225085	2023165299.2266886	0.875999999999965
2.2087939698492467	1805019486.7879438	2071401752.1090603	0.8714000000000525
2.2251256281407037	1841405859.4233282	2119481882.3932707	0.8688000000000258
2.241457286432161	1907724094.5874715	2167375703.916519	0.8802000000000698
2.2577889447236186	1946589527.8067892	2215054082.6203933	0.8787999999999944
2.2741206030150756	1974700185.6578202	2262488755.336622	0.8728000000000072
2.290452261306533	2009397540.673406	2309652345.6018014	0.8699999999999302
2.3067839195979905	2065252705.2877984	2356518376.6403995	0.8764000000000647
2.3231155778894474	2116616376.8822782	2403061281.6556625	0.8807999999999878
2.339447236180905	2152406534.485705	2449256411.5676465	0.8788000000000233
2.3557788944723623	2213135995.778534	2495080040.3366385	0.8869999999999743
2.3721105527638193	2253939911.2971754	2540509368.0086517	0.8871999999999605
2.3884422110552768	2290255849.649005	2585522521.617715	0.8858000000000128
2.404773869346734	2335527516.0202913	2630098554.077092	0.8879999999999367
2.421105527638191	2366147591.963946	2674217441.1889567	0.8847999999999839
2.4374371859296486	2403675452.0090156	2717860076.8986325	0.8843999999999503
2.453768844221106	2455640752.5952287	2761008266.916325	0.8893999999999453
2.470100502512563	2509262025.138935	2803644720.8255434	0.8950000000000263
2.4864321608040205	2533289358.6947627	2845753042.7935505	0.8901999999999803
2.502763819095478	2602628193.705314	2887317720.995297	0.9014000000000532
2.519095477386935	2603280138.9977984	2928324115.8581705	0.8889999999999607
2.5354271356783924	2649913789.997953	2968758447.230698	0.8925999999999433
2.5517587939698494	2681271254.0477448	3008607780.5742474	0.8911999999999919
2.568090452261307	2736978291.020349	3047860012.2723746	0.8979999999999202
2.5844221105527643	2789582183.379351	3086503854.1483707	0.9038000000000174
2.6007537688442213	2802077443.3342943	3124528817.277188	0.8968000000000359
2.6170854271356787	2852688911.085836	3161925195.173933	0.9021999999999727
2.633417085427136	2874977220.937515	3198684046.436678	0.8988000000000714
2.649748743718593	2908082662.049146	3234797176.917615	0.8990000000000651
2.6660804020100506	2980512340.527982	3270257121.4922447	0.9113999999999848
2.682412060301508	2986449618.594863	3305057125.492573	0.9035999999999317
2.698743718592965	2993918763.4520364	3339191125.8664236	0.8966000000000602
2.7150753768844225	3036062889.6554165	3372653732.1211877	0.9001999999999772
2.73140703517588	3106442556.9229884	3405440207.106803	0.9122000000000478
2.747738693467337	3117854628.05424	3437546447.6892004	0.9070000000000394
2.7640703517587943	3153986583.306922	3468968965.362047	0.9091999999999275
2.780402010050252	3165833022.5449915	3499704866.841481	0.9046000000000536
2.796733668341709	3174658800.116067	3529751834.685168	0.8994000000000644
2.813065326633166	3213874621.5009584	3559108107.974221	0.9030000000000665
2.8293969849246237	3255544733.0111775	3587772463.0934696	0.9074000000000455
2.8457286432160807	3289604068.285907	3615744194.6428275	0.909799999999962
2.862060301507538	3307136367.011589	3643023096.5099287	0.9077999999999659
2.8783919597989955	3339344593.249461	3669609443.131541	0.9099999999999343
2.8947236180904525	3366604117.5525603	3695503970.968969	0.910999999999954
2.91105527638191	3401471125.813658	3720707860.220316	0.914200000000066
2.9273869346733674	3411148850.452827	3745222716.79028	0.9108000000000641
2.9437185929648244	3414759802.409307	3769050554.536123	0.9059999999998885
2.960050251256282	3443311950.248423	3792193777.8065486	0.9080000000000203
2.9763819095477393	3476676716.7326083	3814655164.288194	0.9114000000000912
2.9927135678391963	3511875206.2178802	3836437848.1729407	0.9154000000000965
3.0090452261306537	3518852825.996594	3857545303.6574264	0.9122000000000751
3.025376884422111	3532065394.2571874	3877981328.784666	0.9108000000000293
3.041708542713568	3575795877.1883955	3897750029.636226	0.9174000000000312
3.0580402010050256	3584706432.6283383	3916855804.8820605	0.9152000000000706
3.074371859296483	3625201428.2348795	3935303330.693772	0.9211999999999433
3.09070351758794	3614712396.085997	3953097546.025977	0.9143999999999605
3.1070351758793975	3630390782.8335767	3970243638.26924	0.9144000000000463
3.1233668341708545	3650265580.0062547	3986747029.2770844	0.9156000000000392
3.139698492462312	3662391226.018693	4002613361.7686005	0.9150000000001058
3.1560301507537694	3666688528.42154	4017848486.107257	0.9126000000000142
3.1723618090452264	3698570888.0062265	4032458447.455746	0.9171999999999544
3.188693467336684	3707357007.4431086	4046449473.3059306	0.9162000000000531
3.2050251256281412	3730169930.9181905	4059827961.3821754	0.918800000000061
3.2213567839195982	3736203669.266028	4072600467.9158697	0.9174000000000022
3.2376884422110557	3775147850.1099358	4084773696.288168	0.9242000000001006
3.254020100502513	3763730501.771328	4096354486.037601	0.9187999999999952
3.27035175879397	3795191217.2593007	4107349802.2286725	0.9240000000000018
3.2866834170854275	3796580920.6133475	4117766725.176995	0.9220000000000385
3.303015075376885	3785846130.4512634	4127612440.526376	0.9172000000001143
3.319346733668342	3821662889.3712687	4136894229.67265	0.9237999999999214
3.3356783919597994	3801533045.3051343	4145619460.5289083	0.9170000000000302
3.352010050251257	3821491932.336339	4153795578.6263847	0.9200000000000157
3.368341708542714	3832677120.7600455	4161430098.5451293	0.9209999999999955
3.3846733668341713	3864227862.184284	4168530595.668226	0.9269999999999614
3.4010050251256287	3836086196.7553744	4175104698.2533083	0.9188000000000562
3.4173366834170857	3854193361.5732017	4181160079.814765	0.9217999999999884
3.433668341708543	3869352254.3630424	4186704451.8101115	0.9242000000000328
3.45	3878202988.988142	4191745556.623738	0.9251999999999666
