Wavelength (microns)	Average Spectral Radiance (W/m^2/sr/m)	Black Body Radiance (W/m^2/sr/m)	Emissivity
0.3	1.2181235374310334e-09	1.4188975392324247e-09	0.8584999999999977
0.3065326633165829	3.9700747229382775e-09	4.571185633780386e-09	0.8685000000000027
0.31306532663316583	1.1971734425833876e-08	1.3993845033119585e-08	0.855500000000005
0.31959798994974875	3.4139811574289817e-08	4.083709518455613e-08	0.8360000000000218
0.32613065326633167	9.61595792781005e-08	1.1393315080343388e-07	0.8440000000000202
0.3326633165829146	2.5626331122434106e-07	3.047126173892368e-07	0.8409999999999768
0.33919597989949746	6.523757274459735e-07	7.831641385906289e-07	0.832999999999974
0.3457286432160804	1.66348696434582e-06	1.938795995741066e-06	0.8579999999999924
0.3522613065326633	3.933296201472949e-06	4.632857716693613e-06	0.8490000000000154
0.3587939698492462	9.052529171593631e-06	1.070671693860899e-05	0.8454999999999748
0.36532663316582914	2.053397522291988e-05	2.3974285140596384e-05	0.8564999999999615
0.37185929648241206	4.431254714815798e-05	5.210176031529277e-05	0.8505000000000283
0.378391959798995	9.284227713694907e-05	0.00011006790413390596	0.8434999999999945
0.38492462311557785	0.00018742962787010378	0.0002263642848672734	0.8280000000000062
0.3914572864321608	0.00037894390128808184	0.0004538250314827459	0.8349999999999758
0.3979899497487437	0.0007477724406549229	0.0008880907846257688	0.8420000000000288
0.4045226130653266	0.001423238036379665	0.0016983747450830817	0.8380000000000251
0.41105527638190953	0.002631072639308612	0.003177623960517632	0.828000000000004
0.41758793969849245	0.004707596461589829	0.005822630131836327	0.8085000000000273
0.42412060301507537	0.008665682055040265	0.010459483470175647	0.8284999999999753
0.4306532663316583	0.015292992181508766	0.01843639804883599	0.8294999999999627
0.4371859296482412	0.02623401929009417	0.031914865316415984	0.8220000000000073
0.4437185929648241	0.04406598639398458	0.05430189327662827	0.8115000000000137
0.45025125628140705	0.07420468008906515	0.09088142080718371	0.8164999999999961
0.4567839195979899	0.12157474319713261	0.1497225901442563	0.8119999999999766
0.4633165829145729	0.20020497732943424	0.24296720549689366	0.8239999999999748
0.46984924623115576	0.3198418586933768	0.3886292329202541	0.8230000000000197
0.4763819095477387	0.4956723129583767	0.6130764538755277	0.8085000000000205
0.4829145728643216	0.7764118906765333	0.9544092079614033	0.8134999999999284
0.4894472361809045	1.189007016287232	1.4670043384180658	0.8104999999995839
0.49597989949748744	1.8020917461803483	2.2275546924429173	0.8089999999973191
0.5025125628140703	2.729564732315368	3.3430064082670934	0.816499999989616
0.5090452261306533	4.013350430024006	4.960878158487594	0.8089999999612049
0.5155778894472361	5.913421444298286	7.282538725560937	0.8119999998822944
0.5221105527638191	8.696860059675439	10.580121729739462	0.8219999997948607
0.528643216080402	12.265602087160627	15.217868706353759	0.8059999940753528
0.535175879396985	17.592356890001387	21.678813431259872	0.8114999903377553
0.5417085427135678	24.98314428744388	30.597850493514645	0.8164999790668032
0.5482412060301507	34.92672911043857	42.80236835619758	0.8159999189713376
0.5547738693467337	47.81589201753345	59.361769943224864	0.8054997696878953
0.5613065326633166	67.48147898300859	81.6473502360688	0.8264993142814541
0.5678391959798995	91.18418930039135	111.40414825481405	0.8184990480949264
0.5743718592964824	121.12160498141833	150.83653766047632	0.802999106582886
0.5809045226130654	162.36951752718804	202.709463349913	0.8009962378860874
0.5874371859296482	219.75281680440628	270.467367942086	0.8124929024763571
0.5939698492462311	291.1743752593507	358.37297897286857	0.812489758836965
0.6005025125628141	383.22725375926353	471.6682418609765	0.8124932309354405
0.607035175879397	504.50692398156866	616.7597822190123	0.8179958202955872
0.6135678391959799	649.9488984714563	801.4313608695878	0.8109851076531789
0.6201005025125628	842.533006476876	1035.085843132134	0.8139740409620523
0.6266331658291457	1067.170959863103	1329.0192379172827	0.8029763072019
0.6331658291457286	1359.0241834740857	1696.7293695113283	0.800966970864361
0.6396984924623115	1772.8466207512693	2154.261723579322	0.822948577392756
0.6462311557788945	2155.995996048068	2720.5949571564597	0.7924722459610433
0.6527638190954774	2742.7244549913503	3418.0684789353527	0.8024193991121102
0.6592964824120603	3421.9655803372198	4272.854390137342	0.8008617350115756
0.6658291457286432	4217.637392831851	5315.475927287403	0.7934637369309278
0.6723618090452261	5286.931279734966	6581.374366383707	0.8033172078372434
0.6788944723618091	6561.209566838842	8111.526133836141	0.8088748601165986
0.685427135678392	8051.180602000481	9953.111624192183	0.8089109120841326
0.6919597989949748	9652.508751372388	12160.236949586262	0.7937763705912658
0.6984924623115578	11966.258087453814	14794.709542992437	0.8088200753573882
0.7050251256281407	14239.381475032165	17926.868209092638	0.7943039079078993
0.7115577889447235	17293.346075439815	21636.467865629016	0.7992684472732935
0.7180904522613065	20881.04853543446	26013.618847550242	0.8026967973124152
0.7246231155778895	25289.745646742158	31159.780259431704	0.8116150189822743
0.7311557788944724	30186.796167733402	37188.806462129345	0.8117172622486195
0.7376884422110552	35792.272225031855	44228.04537115245	0.8092664264194955
0.7442211055276382	42590.280686935206	52419.48683069588	0.8124894626399723
0.7507537688442211	49309.23005619436	61920.95891258028	0.7963253625611467
0.7572864321608039	59303.985398659235	72907.36957748223	0.8134155126202158
0.7638190954773869	68787.17352777784	85571.99073065535	0.8038515049193017
0.7703517587939699	78896.71394079996	100127.78130971994	0.7879602734505118
0.7768844221105528	93208.43929048395	116808.74566166912	0.7979577108075253
0.7834170854271356	108054.46063062399	135871.323103521	0.7952705409977998
0.7899497487437186	123980.48533366187	157595.8042193133	0.7866991507028214
0.7964824120603016	148060.75778093387	182287.7691284045	0.8122363803609833
0.8030150753768843	170379.02546340475	210279.54266911233	0.8102501237198643
0.8095477386934673	193526.94409777538	241931.66117991402	0.7999240081018492
0.8160804020100503	221532.30550106266	277634.3453300382	0.7979283155249247
0.8226130653266333	252928.31476977732	317808.9732538964	0.7958501365778424
0.829145728643216	284213.58116479014	362909.54808102467	0.783152668943655
0.835678391959799	334943.6489120554	413424.153826054	0.8101695215731908
0.842211055276382	374432.1973544503	469876.3935123617	0.7968738215502618
0.8487437185929647	423811.3563528243	532826.8033491471	0.7954017209511739
0.8552763819095477	488007.2211977595	602874.2367644317	0.809467698962967
0.8618090452261307	542521.2541775408	680657.2121159064	0.7970550293458978
0.8683417085427136	616088.8008374226	766855.2179571113	0.8033965035520946
0.8748743718592964	673314.0641041609	862189.9698269881	0.7809346984624188
0.8814070351758794	778373.9363104337	967426.6126557697	0.8045818939936431
0.8879396984924623	861140.7716812369	1083374.8630374884	0.7948687024792438
0.8944723618090453	965843.6849546047	1210890.0858083365	0.7976311774902759
0.9010050251256281	1074699.090570643	1350874.2995879953	0.7955581736201635
0.907537688442211	1201966.1148366022	1504277.1061868283	0.7990323790032609
0.914070351758794	1340173.0595179258	1672096.5390525558	0.8014926340779913
0.9206030150753768	1488508.5557336432	1855379.8262245483	0.8022662177817038
0.9271356783919598	1655814.5476369376	2055224.0635785903	0.8056613276285827
0.9336683417085427	1828496.8811228243	2272776.794478773	0.8045210975247405
0.9402010050251257	2004748.8661343018	2509236.4923027665	0.7989477565323114
0.9467336683417085	2231440.6571480744	2765852.9426701358	0.8067821042552814
0.9532663316582914	2415802.170911449	3043927.5225779656	0.7936464166746835
0.9597989949748744	2653844.4288919065	3344813.3740313696	0.7934207778215543
0.9663316582914572	2935947.287630501	3669915.4701463813	0.800004063176255
0.9728643216080402	3258978.150096468	4020690.572096557	0.8105518421918999
0.9793969849246231	3438269.1779500498	4398647.075670109	0.7816651617648249
0.9859296482412061	3872745.2620276357	4805344.746600259	0.8059245415779108
0.9924623115577889	4138392.866822062	5242394.344223081	0.7894089217806389
0.9989949748743718	4544315.774011186	5711457.13340736	0.7956491080762298
1.0055276381909548	4949290.150809702	6214244.285080192	0.7964428052325648
1.0120603015075378	5388854.873474549	6752516.166049039	0.7980513842483132
1.0185929648241205	5832259.736068937	7328081.519181748	0.7958781190960559
1.0251256281407035	6238047.943653048	7942796.535361884	0.78537174103363
1.0316582914572865	6803433.568611742	8598563.818973709	0.7912290600901504
1.0381909547738692	7370155.309931748	9297331.249000471	0.79271729838862
1.0447236180904522	7969727.753007199	10041090.738128277	0.7937113567497556
1.0512562814070352	8584689.97528688	10831876.892544629	0.7925394703475218
1.0577889447236182	9170693.761184871	11671765.57539852	0.7857160685710352
1.064321608040201	10004668.89624274	12562872.377150578	0.7963679480211299
1.070854271356784	10434719.016104355	13507350.996283717	0.7725214972924939
1.0773869346733669	11529718.896002138	14507391.534069743	0.7947478958519374
1.0839195979899496	11976860.484927967	15565218.707293425	0.7694630387246628
1.0904522613065326	12933594.520607842	16683089.983021012	0.7752517389626761
1.0969849246231156	13681925.460097395	17863293.639667578	0.7659240079732578
1.1035175879396986	14073320.208043795	19108146.75876664	0.7365089030199691
1.1100502512562813	14553204.969698582	20419993.15197456	0.71269392018828
1.1165829145728643	13746400.639276313	21801201.227949925	0.6305340928486515
1.1231155778894473	0.0	23254161.8038442	0.0
1.1296482412060302	0.0	24781285.866207656	0.0
1.136180904522613	0.0	26385002.28617613	0.0
1.142713567839196	0.0	28067755.493836083	0.0
1.149246231155779	0.0	29832003.116691332	0.0
1.1557788944723617	0.0	31680213.587156557	0.0
1.1623115577889447	0.0	33614863.723994985	0.0
1.1688442211055277	0.0	35638436.2925877	0.0
1.1753768844221106	0.0	37753417.54888759	0.0
1.1819095477386934	0.0	39962294.77185183	0.0
1.1884422110552764	0.0	42267553.789085135	0.0
1.1949748743718593	0.0	44671676.50034469	0.0
1.201507537688442	0.0	47177138.40347021	0.0
1.208040201005025	0.0	49786406.12720161	0.0
1.214572864321608	0.0	52501934.97523692	0.0
1.221105527638191	0.0	55326166.48576604	0.0
1.2276381909547738	0.0	58261526.010588154	0.0
1.2341708542713568	0.0	61310420.31778769	0.0
1.2407035175879397	0.0	64475235.22180191	0.0
1.2472361809045227	0.0	67758333.24456947	0.0
1.2537688442211055	0.0	71162051.31129529	0.0
1.2603015075376884	0.0	74688698.48421443	0.0
1.2668341708542714	0.0	78340553.73757504	0.0
1.2733668341708542	0.0	82119863.77690066	0.0
1.2798994974874371	0.0	86028840.90542962	0.0
1.2864321608040201	0.0	90069660.94045283	0.0
1.292964824120603	0.0	94244461.18212087	0.0
1.2994974874371858	0.0	98555338.4371029	0.0
1.3060301507537688	0.0	103004347.0993327	0.0
1.3125628140703518	0.0	107593497.28988685	0.0
1.3190954773869348	0.0	112324753.05789685	0.0
1.3256281407035175	0.0	117200030.64421056	0.0
1.3321608040201005	0.0	122221196.80936763	0.0
1.3386934673366835	0.0	127390067.22728878	0.0
1.3452261306532665	0.0	132708404.94591577	0.0
1.3517587939698492	0.0	138177918.91588825	0.0
1.3582914572864322	0.0	143800262.58818865	0.0
1.3648241206030152	0.0	149577032.58153388	0.0
1.3713567839195981	0.0	155509767.4201493	0.0
1.377889447236181	0.0	161599946.34242213	0.0
1.3844221105527639	0.0	167848988.1807837	0.0
1.3909547738693468	0.0	174258250.31304604	0.0
1.3974874371859296	0.0	180829027.6852807	0.0
1.4040201005025126	0.0	187562551.9062179	0.0
1.4105527638190956	0.0	194459990.41299772	0.0
1.4170854271356785	0.0	201522445.7080214	0.0
1.4236180904522613	0.0	208750954.66651163	0.0
1.4301507537688443	0.0	216146487.91431603	0.0
1.4366834170854272	0.0	223709949.27534392	0.0
1.44321608040201	0.0	231442175.28798604	0.0
1.449748743718593	0.0	239343934.78972536	0.0
1.456281407035176	0.0	247415928.5690955	0.0
1.462814070351759	0.0	255658789.08403957	0.0
1.4693467336683417	0.0	264073080.245673	0.0
1.4758793969849247	0.0	272659297.26634806	0.0
1.4824120603015076	0.0	281417866.5708852	0.0
1.4889447236180906	0.0	290349145.7697484	0.0
1.4954773869346734	0.0	299453423.6929056	0.0
1.5020100502512563	0.0	308730920.4830455	0.0
1.5085427135678393	0.0	318181787.7467855	0.0
1.515075376884422	0.0	327806108.7624556	0.0
1.521608040201005	0.0	337603898.7430109	0.0
1.528140703517588	0.0	347575105.15257126	0.0
1.534673366834171	0.0	357719608.0750917	0.0
1.5412060301507537	0.0	368037220.63358843	0.0
1.5477386934673367	0.0	378527689.45837903	0.0
1.5542713567839197	0.0	389190695.2027171	0.0
1.5608040201005025	0.0	400025853.10424167	0.0
1.5673366834170854	0.0	411032713.5905992	0.0
1.5738693467336684	0.0	422210762.9276164	0.0
1.5804020100502514	0.0	433559423.90838856	0.0
1.5869346733668341	0.0	445078056.58163685	0.0
1.5934673366834171	0.0	456765959.0176922	0.0
1.6	0.0	468622368.1104712	0.0
